Date,Open,High,Low,Close,Volume,OpenInt
20111215,6.2401,6.4114,5.8978,6.1333,8522,0
20111216,6.5469,6.5469,6.2045,6.2045,3083,0
20111219,6.5541,6.5541,5.8978,6.1904,3116,0
20111220,6.4328,6.5256,6.4044,6.44,3798,0
20111221,6.1333,6.2401,6.062,6.0977,6941,0
20111222,6.1475,6.1475,6.1404,6.1404,1009,0
20111223,6.0977,6.4186,5.7053,6.119,25356,0
20111227,6.2332,6.2332,6.2332,6.2332,1404,0
20111228,6.119,6.119,5.7838,5.9691,4421,0
20111229,5.8836,6.0549,5.848,6.0549,840,0
20111230,6.0406,6.0406,6.0335,6.0335,349,0
20120103,6.2118,6.2118,6.1618,6.2045,1793,0
20120104,6.0406,6.1904,5.4201,5.6982,12636,0
20120105,5.5342,5.8836,5.5342,5.6341,7405,0
20120106,5.7053,5.7053,5.3345,5.3489,5288,0
20120109,5.5414,5.6697,5.2062,5.5985,7196,0
20120110,5.1776,5.3131,5.0564,5.1276,31377,0
20120111,5.1349,5.6697,5.1349,5.4486,8628,0
20120112,5.4201,5.6911,5.3845,5.4129,8692,0
20120113,5.3916,5.6055,5.3916,5.4129,5636,0
20120117,5.4129,5.4272,5.2205,5.3987,6988,0
20120118,5.1419,5.2988,5.1419,5.2419,3125,0
20120119,5.2632,5.5985,5.2347,5.5985,3257,0
20120120,5.5199,5.5199,4.6428,5.2774,10097,0
20120123,5.2774,5.4772,5.2774,5.2988,19337,0
20120124,5.4843,5.4843,5.2846,5.3774,6732,0
20120125,5.4985,5.5985,5.4913,5.5985,17530,0
20120126,5.3845,5.7053,5.3845,5.6341,9138,0
20120127,5.7053,5.7053,5.3916,5.4772,3785,0
20120130,5.5342,5.8766,5.5342,5.8124,8413,0
20120131,5.8124,6.062,5.7053,6.0478,7850,0
20120201,6.0192,6.0262,5.7053,5.7053,15823,0
20120202,5.7766,6.0406,5.7053,6.0121,8368,0
20120203,6.0192,6.7109,5.9906,6.5325,12353,0
20120206,6.5755,6.5969,6.44,6.44,10467,0
20120207,6.44,6.5969,6.3116,6.4044,8083,0
20120208,6.4471,6.5969,6.0262,6.3187,7480,0
20120209,6.9107,6.9107,6.062,6.3972,6441,0
20120210,6.4258,6.5969,6.1118,6.1118,5112,0
20120213,6.1404,6.5113,6.1404,6.1404,982,0
20120214,6.4114,6.49,6.4114,6.4328,562,0
20120215,6.226,6.226,6.1404,6.226,505,0
20120216,6.4186,6.5755,6.1404,6.2617,7288,0
20120217,6.2401,6.276,6.0977,6.1548,2246,0
20120221,6.0977,6.5398,5.4558,5.8195,24896,0
20120222,5.7196,5.9193,5.7196,5.8552,6653,0
20120223,5.8836,6.0262,5.7126,5.9906,5822,0
20120224,6.0549,6.5256,5.9977,6.1118,15957,0
20120227,6.1475,6.3402,5.8836,6.062,6029,0
20120228,6.0692,6.276,5.9479,6.2332,2945,0
20120229,5.8836,6.2401,5.7126,5.848,10147,0
20120301,5.848,6.276,5.8124,6.276,3160,0
20120302,5.9906,6.4114,5.9051,6.4114,5258,0
20120305,6.2332,6.2332,6.2332,6.2332,1507,0
20120306,6.1548,6.2332,6.0977,6.2332,3879,0
20120307,6.0977,6.2045,5.9193,5.9906,5596,0
20120308,6.2401,6.2401,6.2332,6.2401,3828,0
20120309,6.062,6.062,5.9193,6.062,4626,0
20120312,6.062,6.2401,6.062,6.1832,2382,0
20120313,6.2401,6.2401,6.0262,6.0905,2566,0
20120314,6.1761,6.1761,5.9193,5.9266,15349,0
20120315,6.1333,6.2332,6.119,6.1976,4959,0
20120316,5.9334,6.062,5.9334,6.062,2569,0
20120319,6.062,6.1904,6.062,6.0977,4938,0
20120320,6.2045,6.2045,5.7838,5.8267,4113,0
20120321,6.0549,6.1261,5.8267,5.8836,4418,0
20120322,5.9906,5.9906,5.8766,5.9906,5889,0
20120323,5.9479,5.9906,5.8695,5.8695,5258,0
20120326,6.0262,6.0262,5.7766,5.848,9395,0
20120327,5.8338,5.8338,5.5342,5.5985,17918,0
20120328,5.5199,5.684,5.4985,5.6697,8471,0
20120329,5.6911,5.6911,5.5985,5.684,19709,0
20120330,5.6697,5.684,5.5342,5.677,5733,0
20120402,5.5414,5.677,5.2846,5.2846,13781,0
20120403,5.3345,5.5199,5.1776,5.2561,24582,0
20120404,5.2918,5.4843,5.2918,5.3489,4066,0
20120405,5.356,5.6341,5.356,5.527,9620,0
20120409,5.5414,5.6626,5.5414,5.6626,3806,0
20120410,5.5414,5.6555,5.4913,5.5913,13377,0
20120411,5.5841,5.5841,5.2062,5.2205,34049,0
20120412,5.2205,5.4201,5.2205,5.2846,3571,0
20120413,5.3131,5.3845,5.2774,5.2774,13419,0
20120416,5.4201,5.4201,5.1918,5.1918,3394,0
20120417,5.3774,5.4201,5.1918,5.3489,6955,0
20120418,5.1991,5.2276,5.1918,5.1991,7340,0
20120419,5.306,5.306,5.1918,5.2276,1100,0
20120420,5.1918,5.2918,5.0993,5.2918,18948,0
20120423,5.0993,5.1706,5.035,5.1063,15299,0
20120424,5.1063,5.2419,4.6998,4.7213,25655,0
20120425,4.757,4.9493,4.757,4.821,7591,0
20120426,4.7783,4.871,4.7783,4.8496,6732,0
20120427,4.8638,5.0065,4.7783,4.9924,4680,0
20120430,5.1633,5.1776,4.0793,4.386,99134,0
20120501,4.4145,4.714,4.386,4.5072,55165,0
20120502,4.6143,4.714,4.6143,4.7069,22229,0
20120503,4.714,4.7498,4.5715,4.5715,25939,0
20120504,4.6,4.6213,4.5857,4.6,11357,0
20120507,4.6286,4.6713,4.4289,4.6713,13489,0
20120508,4.714,4.714,4.6072,4.6072,14778,0
20120509,4.6713,4.7069,4.6072,4.6072,5292,0
20120510,4.6713,4.7284,4.6072,4.6213,14498,0
20120511,4.6358,4.6358,4.1578,4.279,81116,0
20120514,4.3146,4.6,4.279,4.6,37777,0
20120515,4.6,4.7069,4.5286,4.7069,7990,0
20120516,4.6358,4.7711,4.6358,4.6784,8610,0
20120517,4.7426,4.8781,4.7426,4.7996,4626,0
20120518,4.7996,4.7996,4.6713,4.7069,10097,0
20120521,4.9066,4.9066,4.8567,4.9066,5988,0
20120522,4.9066,5.028,4.9066,5.028,12117,0
20120523,4.8496,5.1276,4.714,4.7354,44733,0
20120524,4.7498,4.9924,4.6428,4.985,11951,0
20120525,4.978,4.9924,4.978,4.985,11567,0
20120529,4.9924,5.1136,4.821,4.9136,14627,0
20120530,4.9566,4.9566,4.8496,4.9209,9546,0
20120531,4.8995,4.9923,4.8139,4.985,6029,0
20120601,4.978,4.9924,4.7925,4.7925,18141,0
20120604,4.8852,4.8852,4.6855,4.8496,22399,0
20120605,4.985,4.9924,4.8282,4.9638,13271,0
20120606,4.9209,4.9924,4.6428,4.9709,25306,0
20120607,4.9924,5.0421,4.9924,4.9924,12409,0
20120608,4.9924,5.0564,4.985,5.0564,12760,0
20120611,4.985,4.985,4.9709,4.9709,7606,0
20120612,4.985,4.985,4.9638,4.985,10880,0
20120613,4.985,5.0065,4.9638,5.0065,11519,0
20120614,5.0993,5.0993,5.0421,5.0493,4347,0
20120615,5.0849,5.0993,4.9994,5.0993,8139,0
20120618,5.0993,5.1633,5.0993,5.1492,2313,0
20120619,5.1633,5.2347,4.9638,5.2347,13391,0
20120620,5.0065,5.3275,4.9994,5.3275,13909,0
20120621,5.1349,5.1349,5.1349,5.1349,4347,0
20120622,5.1706,5.5627,5.1492,5.5627,52836,0
20120625,5.4558,5.4772,5.3345,5.4201,9094,0
20120626,5.1063,5.3845,5.1063,5.3489,3224,0
20120627,5.3489,5.4772,5.1706,5.4772,13751,0
20120628,5.2062,5.4344,5.1706,5.4201,2440,0
20120629,5.3489,5.4558,5.2419,5.3774,9339,0
20120702,5.2846,5.3275,5.0993,5.0993,5036,0
20120705,5.1063,5.1349,5.1063,5.1349,2105,0
20120706,5.1349,5.2632,5.1349,5.2632,1704,0
20120709,5.1349,5.1706,5.1063,5.1276,11031,0
20120711,5.1492,5.249,5.0993,5.1706,7274,0
20120712,5.0993,5.249,5.0849,5.1136,12213,0
20120713,5.1136,5.1276,5.1136,5.1137,2662,0
20120716,5.1205,5.249,5.1136,5.1136,8692,0
20120717,5.1136,5.1349,5.0779,5.1349,2775,0
20120718,5.1349,5.1349,4.493,4.6,60923,0
20120719,4.6358,4.6784,4.6358,4.6713,11535,0
20120720,4.6642,4.7711,4.6642,4.7213,12101,0
20120723,4.714,4.7498,4.6358,4.6358,16890,0
20120724,4.6358,4.7354,4.6,4.6089,13133,0
20120725,4.6143,4.6358,4.5643,4.6358,10517,0
20120726,4.6927,4.6927,4.4644,4.4644,9906,0
20120727,4.4573,4.6855,4.4573,4.581,5889,0
20120730,4.6358,4.6358,4.6286,4.6286,3079,0
20120731,4.6358,4.6428,4.5643,4.5965,2803,0
20120801,4.5643,4.7783,4.5643,4.6358,4769,0
20120802,4.7498,4.7498,4.7069,4.7118,7155,0
20120803,4.7069,4.7069,4.5643,4.6428,13436,0
20120806,4.6213,4.6998,4.6,4.6855,30078,0
20120807,4.6713,4.9066,4.6437,4.8995,18540,0
20120808,4.8995,4.9209,4.6998,4.6998,14021,0
20120809,4.6927,4.6927,4.6784,4.6855,4941,0
20120810,4.6998,4.8139,4.6855,4.8139,5187,0
20120813,4.6498,4.8781,4.6498,4.8781,840,0
20120814,4.764,4.9493,4.7213,4.8353,9009,0
20120815,4.871,4.8852,4.5715,4.6,24741,0
20120816,4.5857,4.5857,4.3933,4.4145,27602,0
20120817,4.5215,4.7354,4.5215,4.721,24163,0
20120820,4.8139,5.2419,4.8139,5.1982,28345,0
20120821,5.2276,5.2426,4.4573,4.9924,34622,0
20120822,4.6855,5.1349,4.6569,5.1349,7526,0
20120823,4.7925,5.1276,4.6855,5.0635,23384,0
20120827,4.9994,5.1706,4.8139,5.0564,28244,0
20120828,4.9638,5.1918,4.9638,5.1349,14444,0
20120829,4.9209,5.2414,4.8638,5.2414,20929,0
20120830,5.2347,5.2704,5.2066,5.2632,32206,0
20120831,5.2205,5.2953,5.1706,5.1706,33784,0
20120904,5.2205,5.4201,5.1849,5.2846,20331,0
20120905,5.1276,5.1349,5.0993,5.1349,3365,0
20120906,5.3987,5.5627,4.985,4.9924,12356,0
20120907,4.9994,5.1706,4.8282,5.1706,18093,0
20120910,5.3417,5.3417,5.1776,5.1776,16662,0
20120911,5.2632,5.5557,5.2632,5.368,13057,0
20120912,5.356,5.356,5.356,5.356,279,0
20120913,5.3845,5.3845,5.0779,5.3417,3545,0
20120914,5.3631,5.4486,5.1276,5.1276,5247,0
20120917,5.035,5.2062,5.035,5.1561,11636,0
20120918,5.1918,5.242,5.0706,5.2419,3625,0
20120919,5.1419,5.2062,5.1419,5.2062,3857,0
20120920,5.2774,5.3489,5.2561,5.2774,11736,0
20120921,5.3488,5.3489,5.2704,5.2836,8412,0
20120924,5.2846,5.2846,5.1349,5.1349,7934,0
20120925,5.1349,5.1349,5.028,5.035,9956,0
20120928,5.0421,5.0635,4.9924,5.0476,21169,0
20121001,5.0635,5.0635,5.0564,5.0635,2382,0
20121002,5.1349,5.1848,5.1205,5.1349,14680,0
20121003,4.9995,5.1349,4.9995,5.1349,1080,0
20121004,5.1136,5.2774,5.0779,5.249,6591,0
20121005,5.1083,5.1083,5.1083,5.1083,1228,0
20121008,5.2632,5.2632,5.2313,5.2313,3325,0
20121009,5.1776,5.2205,5.0867,5.1419,4410,0
20121010,5.1063,5.1063,5.0779,5.0779,5636,0
20121011,5.2347,5.2347,4.821,4.9896,21452,0
20121012,5.1136,5.1349,4.9924,4.9924,6008,0
20121015,4.9924,5.1561,4.8889,5.1561,13251,0
20121016,5.0706,5.0706,4.8567,4.8567,7515,0
20121017,4.9209,4.9566,4.6855,4.7284,21257,0
20121018,4.7284,4.7588,4.6213,4.714,23640,0
20121019,4.6569,4.6713,4.4644,4.4644,41168,0
20121022,4.4358,4.4787,4.3646,4.3646,42697,0
20121023,4.3933,4.5501,4.3933,4.4502,4914,0
20121024,4.4715,4.6286,4.4715,4.5928,9817,0
20121025,4.5286,4.757,4.5286,4.757,12423,0
20121026,4.871,4.9066,4.5715,4.9066,8511,0
20121031,4.4573,4.764,4.4573,4.5643,21221,0
20121101,4.5073,4.5268,4.5072,4.5072,1269,0
20121102,4.6286,5.2347,4.6286,5.2134,17411,0
20121105,4.9924,5.0564,4.8496,4.9924,19328,0
20121106,4.9924,5.0993,4.764,4.8852,16678,0
20121107,4.6998,4.821,4.6998,4.7498,12101,0
20121108,4.764,4.764,4.5643,4.7284,30358,0
20121109,4.7925,4.8139,4.7069,4.7711,17747,0
20121112,4.7069,4.8139,4.7035,4.7035,17224,0
20121113,4.7069,4.757,4.6286,4.6713,11381,0
20121114,4.6358,4.6855,4.4358,4.493,36862,0
20121115,4.4931,4.5643,4.4931,4.5643,9101,0
20121116,4.5643,4.6855,4.5643,4.6855,18930,0
20121119,4.6642,4.7063,4.5741,4.5741,3322,0
20121120,4.6428,4.7069,4.6428,4.6983,10474,0
20121121,4.7069,4.7284,4.6498,4.7058,7150,0
20121123,4.6358,4.8139,4.6358,4.7975,7728,0
20121126,4.6358,4.6358,4.6358,4.6358,734,0
20121127,4.6358,4.6713,4.6358,4.6358,5329,0
20121128,4.6213,4.714,4.6213,4.714,17800,0
20121129,4.8139,4.8139,4.8139,4.8139,703,0
20121130,4.6521,4.6642,4.6502,4.6642,2173,0
20121203,4.8139,5.1991,4.8034,4.9352,22996,0
20121204,4.978,5.0421,4.8852,4.9566,14894,0
20121205,5.0208,5.0208,4.6358,4.6428,21879,0
20121206,4.6855,4.8426,4.6855,4.7426,8202,0
20121207,4.6998,4.7426,4.6535,4.7069,32468,0
20121210,4.7069,4.7354,4.4358,4.7354,13089,0
20121211,4.757,4.757,4.5857,4.6358,9808,0
20121212,4.443,4.6357,4.3646,4.5286,17431,0
20121213,4.6142,4.6142,4.493,4.5145,3224,0
20121214,4.4644,4.5501,4.4358,4.5145,6029,0
20121217,4.4931,4.6286,4.4931,4.5572,10071,0
20121218,4.5643,4.5643,4.3646,4.4644,32108,0
20121220,4.4002,4.5358,4.4002,4.4573,19445,0
20121221,4.4431,4.4431,4.379,4.386,22979,0
20121224,4.3502,4.3502,4.3433,4.3502,3365,0
20121226,4.379,4.4787,4.379,4.4074,32682,0
20121227,4.3599,4.4643,4.3575,4.4218,13350,0
20121228,4.336,4.4618,4.336,4.4618,5610,0
20121231,4.3502,4.4929,4.3502,4.4706,21235,0
20130102,4.4289,4.4859,4.3933,4.3933,19423,0
20130103,4.4715,4.4715,4.4358,4.4573,15003,0
20130104,4.4502,4.493,4.4502,4.493,11995,0
20130107,4.5358,4.5358,4.4645,4.5215,4069,0
20130108,4.5286,4.708,4.4074,4.4859,19784,0
20130109,4.4289,4.493,4.3933,4.4573,13797,0
20130110,4.4715,4.5643,4.4644,4.5643,14778,0
20130111,4.5501,4.5785,4.5358,4.5572,21346,0
20130114,4.5785,4.5785,4.5785,4.5785,840,0
20130115,4.5928,4.5928,4.4358,4.5072,32142,0
20130116,4.5358,4.6286,4.5286,4.6072,20861,0
20130117,4.6428,4.6428,4.4218,4.5215,27016,0
20130118,4.4573,4.5643,4.4573,4.5643,14660,0
20130122,4.5002,4.5411,4.4145,4.5145,14047,0
20130123,4.4715,4.5643,4.4644,4.5643,17246,0
20130124,4.4715,4.4787,4.4644,4.4787,3506,0
20130125,4.4715,4.4859,4.4145,4.4218,15002,0
20130128,4.4289,4.4573,4.3576,4.4573,26920,0
20130129,4.5189,4.5189,4.3502,4.3575,31167,0
20130130,4.386,4.534,4.3646,4.534,16608,0
20130131,4.4644,4.4644,4.3718,4.4502,22671,0
20130201,4.4002,4.4801,4.379,4.4358,33096,0
20130204,4.4358,4.4859,4.4358,4.4376,9455,0
20130205,4.4859,4.4859,4.4289,4.4289,6588,0
20130206,4.441,4.8995,4.441,4.7426,36979,0
20130207,4.7426,4.7426,4.6143,4.6358,15348,0
20130208,4.6927,4.764,4.5715,4.6072,13291,0
20130211,4.6784,4.6974,4.5223,4.5358,18160,0
20130212,4.5358,4.6927,4.5145,4.5715,16511,0
20130213,4.5857,4.6,4.4502,4.4644,17249,0
20130214,4.4787,4.6072,4.4787,4.6072,15172,0
20130215,4.4715,4.5927,4.4573,4.5927,5681,0
20130219,4.4715,4.56,4.4358,4.4715,18537,0
20130220,4.4859,4.5428,4.4573,4.4573,25352,0
20130221,4.4787,4.5286,4.4502,4.4644,17353,0
20130222,4.4573,4.493,4.4573,4.4787,4532,0
20130225,4.4644,4.5928,4.4573,4.4715,37404,0
20130226,4.4724,4.5216,4.4644,4.4715,19178,0
20130227,4.493,4.5145,4.4502,4.5145,20203,0
20130228,4.4859,4.6642,4.4859,4.5643,7526,0
20130301,4.5857,4.6403,4.5857,4.6,2803,0
20130304,4.6358,4.6427,4.5715,4.6427,5753,0
20130305,4.6358,4.7426,4.5502,4.6713,18193,0
20130306,4.6428,4.714,4.6428,4.6927,12148,0
20130307,4.6569,4.6998,4.6468,4.6998,11371,0
20130308,4.6998,4.7426,4.6358,4.6463,16950,0
20130311,4.6286,4.7662,4.6,4.6784,19068,0
20130312,4.6713,4.6713,4.5715,4.6,9861,0
20130313,4.5643,4.6713,4.5643,4.6,15985,0
20130314,4.6,4.6199,4.6,4.6072,13950,0
20130315,4.6713,4.6713,4.5643,4.5715,21659,0
20130318,4.5715,4.6171,4.5286,4.6,24156,0
20130319,4.5643,4.6,4.5286,4.5358,12933,0
20130320,4.6213,4.6713,4.5286,4.5636,26083,0
20130321,4.6143,4.6358,4.5286,4.5715,13902,0
20130322,4.5501,4.6064,4.379,4.386,43173,0
20130325,4.3718,4.5215,4.3718,4.5215,12808,0
20130326,4.379,4.4772,4.3731,4.4502,45511,0
20130327,4.4502,4.4573,4.3749,4.4573,14853,0
20130328,4.4145,4.6183,4.4145,4.6072,22958,0
20130401,4.493,4.6072,4.4358,4.5785,11795,0
20130402,4.5215,4.5286,4.4715,4.4715,5842,0
20130403,4.4644,4.4671,4.3718,4.3718,30136,0
20130404,4.4218,4.4218,4.2006,4.336,50045,0
20130405,4.2932,4.3146,4.279,4.3146,2528,0
20130408,4.2932,4.4074,4.279,4.4002,8545,0
20130409,4.4573,4.4573,4.3004,4.379,14227,0
20130410,4.3575,4.386,4.3204,4.3718,22150,0
20130411,4.2292,4.4145,4.2149,4.3077,37693,0
20130412,4.336,4.386,4.3146,4.3575,12773,0
20130415,4.3146,4.3645,4.3146,4.3195,9150,0
20130416,4.279,4.336,4.2506,4.279,13674,0
20130417,4.2932,4.3645,4.2077,4.279,11128,0
20130418,4.2506,4.2719,4.1721,4.1793,3645,0
20130419,4.2667,4.2667,4.1077,4.1453,29591,0
20130422,4.1507,4.2006,4.0769,4.2006,22648,0
20130423,4.1863,4.2077,4.083,4.1507,14442,0
20130424,4.1365,4.1578,4.0694,4.0865,21977,0
20130425,4.1507,4.1935,4.1507,4.1863,14680,0
20130426,4.2219,4.2219,4.0955,4.1863,17649,0
20130429,4.2639,4.2639,4.1935,4.1935,12508,0
20130430,4.2219,4.2219,4.0865,4.1507,23763,0
20130501,4.1863,4.1863,4.0865,4.0866,19446,0
20130502,4.1507,4.1721,4.0328,4.1222,26440,0
20130503,4.172,4.2648,4.061,4.1364,33286,0
20130506,4.2219,4.3146,4.1364,4.279,156709,0
20130507,4.2862,4.3433,4.279,4.2862,19478,0
20130508,4.2648,4.386,4.2648,4.386,31444,0
20130509,4.3288,4.3718,4.2235,4.279,18783,0
20130510,4.3219,4.386,4.3219,4.379,12313,0
20130513,4.4002,4.4074,4.2862,4.3139,15872,0
20130514,4.3146,4.3502,4.3004,4.3004,14372,0
20130515,4.3502,4.3639,4.279,4.3502,25578,0
20130516,4.3146,4.3718,4.2862,4.3004,13264,0
20130517,4.2077,4.4002,4.1935,4.4002,28191,0
20130520,4.4002,4.6143,4.4002,4.493,27527,0
20130521,4.5286,4.6143,4.4218,4.4289,17840,0
20130522,4.4289,4.5501,4.386,4.4218,49912,0
20130523,4.3933,4.4573,4.386,4.386,28860,0
20130524,4.4573,4.5501,4.4573,4.5428,20250,0
20130528,4.6,4.6642,4.5572,4.6358,54402,0
20130529,4.6286,4.6713,4.5286,4.5286,23824,0
20130530,4.6,4.7711,4.5501,4.7063,38115,0
20130531,4.7072,4.7497,4.5797,4.6358,12306,0
20130603,4.5857,4.5857,4.4573,4.493,15186,0
20130604,4.5643,4.8496,4.5643,4.6998,78086,0
20130605,4.6927,4.7213,4.6358,4.6358,21777,0
20130606,4.6358,4.7213,4.6286,4.6855,17477,0
20130607,4.6784,4.8139,4.6784,4.714,37829,0
20130610,4.7213,4.764,4.5286,4.5572,45214,0
20130611,4.5643,4.6143,4.5002,4.5002,19780,0
20130612,4.6855,4.8189,4.6855,4.7803,14439,0
20130613,4.7151,4.8033,4.589,4.5966,20305,0
20130614,4.7225,4.7225,4.6706,4.6706,681,0
20130617,4.7448,4.8931,4.7077,4.8263,39246,0
20130618,4.7004,4.967,4.7004,4.9303,33910,0
20130619,4.8931,4.9968,4.7523,4.8782,62538,0
20130620,4.7225,4.9303,4.7225,4.7745,17538,0
20130621,4.9303,5.0784,4.7151,4.7151,95654,0
20130624,4.7448,4.8782,4.6411,4.6485,52087,0
20130625,4.7522,4.8486,4.6781,4.6781,21041,0
20130626,4.8709,4.8856,4.7745,4.8634,50357,0
20130627,4.7225,4.9154,4.7225,4.9006,15930,0
20130628,4.9154,5.0266,4.7745,5.0266,61642,0
20130701,4.9819,4.9819,4.6485,4.7967,38092,0
20130702,4.8634,4.8782,4.6262,4.6411,23214,0
20130703,4.6336,4.7448,4.6262,4.6485,11466,0
20130705,4.7077,4.7299,4.5594,4.5668,11051,0
20130708,4.5297,4.589,4.4854,4.5297,20367,0
20130709,4.5446,4.6485,4.5003,4.5594,27128,0
20130710,4.5297,4.589,4.4854,4.5594,8793,0
20130711,4.552,4.5966,4.552,4.5668,4289,0
20130712,4.5075,4.6336,4.463,4.5668,21603,0
20130715,4.5594,4.589,4.4705,4.5223,8342,0
20130716,4.5223,4.589,4.4705,4.4854,18212,0
20130717,4.5446,4.5594,4.4926,4.5594,4773,0
20130718,4.5372,4.5966,4.4556,4.4854,31954,0
20130719,4.4556,4.5075,4.4482,4.4705,23064,0
20130722,4.5282,4.5282,4.4186,4.463,47123,0
20130723,4.4705,4.4705,4.3371,4.352,34114,0
20130724,4.463,4.463,4.374,4.374,6022,0
20130725,4.374,4.463,4.374,4.374,11723,0
20130726,4.4334,4.5223,4.3444,4.4778,36822,0
20130729,4.512,4.5785,4.3817,4.4482,7756,0
20130730,4.4482,4.5594,4.3896,4.4112,30790,0
20130731,4.4482,4.5223,4.4112,4.4334,14613,0
20130801,4.515,4.5223,4.4112,4.4482,39989,0
20130802,4.4186,4.5817,4.4112,4.5223,16728,0
20130805,4.5297,4.5817,4.4334,4.4556,23239,0
20130806,4.515,4.5224,4.4334,4.4706,19843,0
20130807,4.463,4.515,4.4112,4.4112,16718,0
20130808,4.3963,4.4482,4.3444,4.3444,30754,0
20130809,4.352,4.4837,4.3444,4.4334,29809,0
20130812,4.4334,4.4926,4.3617,4.4854,30065,0
20130813,4.3592,4.5223,4.3592,4.5223,9575,0
20130814,4.515,4.7374,4.463,4.6336,26038,0
20130815,4.6411,4.6929,4.6336,4.6597,44476,0
20130816,4.6114,4.7003,4.6114,4.6485,25357,0
20130819,4.5966,4.6132,4.5966,4.6115,17481,0
20130820,4.5966,4.6833,4.5595,4.5668,21004,0
20130821,4.5966,4.6411,4.4563,4.6411,19694,0
20130822,4.5817,4.7003,4.5817,4.6706,2699,0
20130823,4.6706,4.6781,4.6706,4.6781,9223,0
20130826,4.6706,4.7374,4.6706,4.7151,15516,0
20130827,4.7151,4.7151,4.5372,4.6558,6817,0
20130828,4.6411,4.7312,4.6336,4.7312,13473,0
20130829,4.6558,4.7892,4.6336,4.7078,13597,0
20130830,4.7745,4.8931,4.7671,4.8486,37830,0
20130903,4.841,4.8856,4.708,4.7965,75533,0
20130904,4.8664,4.8895,4.8127,4.8742,24300,0
20130905,4.8895,5.0049,4.8434,4.9971,13287,0
20130906,4.967,5.0041,4.8618,4.8933,19833,0
20130909,4.9006,5.0042,4.8339,4.8782,34937,0
20130910,4.8334,5.0601,4.8187,4.9895,48028,0
20130911,5.0586,5.0748,4.9202,4.9202,17014,0
20130912,4.9971,5.074,4.8742,4.9895,57307,0
20130913,5.0356,5.0663,4.9971,5.0049,16393,0
20130916,4.7973,5.0663,4.7973,5.0049,69360,0
20130917,5.0201,5.1587,4.9664,4.9664,19972,0
20130918,4.9971,5.1579,4.9971,5.0434,28625,0
20130919,5.0439,5.566,5.0439,5.1894,56689,0
20130920,5.2355,6.1887,5.2355,5.5583,119375,0
20130923,5.7191,5.7191,5.2046,5.3815,26545,0
20130924,5.3815,5.619,5.3661,5.5276,33747,0
20130925,5.6582,5.6582,5.2201,5.4661,25755,0
20130926,5.4046,5.543,5.4046,5.5353,11187,0
20130927,5.4661,5.6661,5.3584,5.6198,47999,0
20130930,5.6505,5.7276,5.3815,5.7121,44613,0
20131001,5.7044,5.7276,5.5737,5.6122,15867,0
20131002,5.5892,5.6275,5.4046,5.5198,17329,0
20131003,5.42,5.42,5.2508,5.2508,9033,0
20131004,5.2431,5.3508,5.2431,5.3508,319,0
20131007,5.274,5.4046,5.2355,5.2662,19343,0
20131008,5.2508,5.3278,5.1354,5.1739,15738,0
20131009,5.2662,5.3738,5.1354,5.1354,11839,0
20131010,5.2124,5.2816,5.1817,5.2046,27445,0
20131011,5.2508,5.3815,5.1662,5.3278,25755,0
20131014,5.2891,5.4892,5.1587,5.4892,18471,0
20131015,5.4122,5.4892,5.3046,5.3429,30569,0
20131016,5.3199,5.3892,5.2277,5.3815,24325,0
20131017,5.3815,5.4584,5.3429,5.3892,4943,0
20131018,5.42,5.4892,5.3661,5.3969,11636,0
20131021,5.4584,5.4737,5.3892,5.4737,5854,0
20131022,5.4737,5.4892,5.3815,5.3969,18432,0
20131023,5.4814,5.4814,5.3815,5.3892,6764,0
20131024,5.4199,5.4892,5.4199,5.4275,10298,0
20131025,5.4737,5.4969,5.4584,5.4584,5723,0
20131028,5.42,5.4354,5.42,5.4275,13007,0
20131029,5.3815,5.4584,5.3815,5.42,22764,0
20131030,5.4584,5.4969,5.3969,5.3969,10666,0
20131031,5.3969,5.4354,5.3508,5.3508,25968,0
20131101,5.4122,5.4969,5.3508,5.4969,14309,0
20131104,5.4737,5.4969,5.3892,5.4737,17170,0
20131105,5.4661,5.4892,5.3815,5.42,18210,0
20131106,5.4584,5.7659,5.4584,5.6352,59038,0
20131107,5.6352,5.643,5.5583,5.5892,36024,0
20131108,5.6352,5.7505,5.4737,5.6661,117067,0
20131111,5.6661,5.6661,5.5353,5.5353,32780,0
20131112,5.5968,5.5968,5.5583,5.5968,8584,0
20131113,5.5506,5.6505,5.5506,5.643,18081,0
20131114,5.6505,5.6505,5.543,5.643,11156,0
20131115,5.5813,5.9196,5.5276,5.9043,64128,0
20131118,5.5121,5.5353,5.3815,5.443,68939,0
20131119,5.4046,5.4892,5.3892,5.4046,23933,0
20131120,5.3892,5.4584,5.3892,5.4584,30043,0
20131121,5.3815,5.3969,5.1124,5.2046,116417,0
20131122,5.3429,5.42,5.1354,5.4122,57104,0
20131125,5.3815,5.4122,5.297,5.3815,31609,0
20131126,5.3815,5.4508,5.3815,5.3969,1951,0
20131127,5.4584,5.5198,5.4354,5.4892,3897,0
20131129,5.4584,5.4584,5.2431,5.274,48618,0
20131202,5.1433,5.1894,4.8127,4.8895,76485,0
20131203,4.828,4.9587,4.8127,4.8742,54112,0
20131204,4.8204,4.8511,4.7434,4.7895,11897,0
20131205,4.7511,4.7742,4.6972,4.7358,15738,0
20131206,4.7203,4.7588,4.5742,4.6127,50469,0
20131209,4.5665,4.6665,4.5281,4.5435,44356,0
20131210,4.4974,4.7434,4.4666,4.605,132416,0
20131211,4.6589,4.6589,4.5127,4.5665,81428,0
20131212,4.6204,4.6282,4.5665,4.5742,42404,0
20131213,4.605,4.6511,4.5512,4.5742,37983,0
20131216,4.6435,4.705,4.5665,4.5742,107440,0
20131217,4.5665,4.6589,4.4974,4.5359,68548,0
20131218,4.5742,4.6204,4.5127,4.5742,37101,0
20131219,4.5742,4.6282,4.5359,4.5974,22502,0
20131220,4.6435,4.6897,4.6127,4.6744,30306,0
20131223,4.6897,4.828,4.5512,4.5742,35381,0
20131224,4.6127,4.6127,4.6127,4.6127,276,0
20131226,4.6212,4.6597,4.6212,4.6597,1948,0
20131227,4.6597,4.6597,4.5442,4.5903,25084,0
20131230,4.5828,4.6474,4.5517,4.5517,26018,0
20131231,4.5516,4.7366,4.5516,4.7366,36129,0
20140102,4.7136,4.7136,4.5595,4.6443,43601,0
20140103,4.6212,4.6981,4.5673,4.6365,25792,0
20140106,4.6443,4.6827,4.5748,4.6443,61543,0
20140107,4.6597,4.7598,4.6212,4.6443,17399,0
20140108,4.6904,4.7598,4.675,4.6827,44666,0
20140109,4.6904,4.7366,4.6365,4.6365,7402,0
20140110,4.6904,4.7213,4.6365,4.6365,10517,0
20140113,4.6827,4.6904,4.6288,4.6288,16621,0
20140114,4.6288,4.6904,4.6212,4.6827,13503,0
20140115,4.6827,4.6898,4.6212,4.6212,41780,0
20140116,4.6519,4.6519,4.5517,4.6212,18308,0
20140117,4.6443,4.6904,4.6288,4.6904,14281,0
20140121,4.6904,4.752,4.6904,4.752,22722,0
20140122,4.7674,4.7983,4.7059,4.7674,30163,0
20140123,4.7828,4.7828,4.7213,4.7366,12824,0
20140124,4.7059,4.7674,4.6288,4.6597,20514,0
20140127,4.6981,4.7136,4.6134,4.6134,7761,0
20140128,4.6597,4.675,4.6597,4.675,3767,0
20140129,4.675,4.675,4.5903,4.6212,9868,0
20140130,4.6597,4.675,4.6443,4.6519,3521,0
20140131,4.6288,4.6597,4.6288,4.6443,4285,0
20140203,4.675,4.675,4.6001,4.6364,21390,0
20140204,4.6142,4.6904,4.6057,4.6597,27453,0
20140205,4.6597,4.6827,4.6134,4.675,16597,0
20140206,4.7059,4.7136,4.6365,4.6597,19673,0
20140207,4.6443,4.6519,4.5828,4.5979,45046,0
20140210,4.6597,4.6597,4.6365,4.6443,13224,0
20140211,4.6597,4.6597,4.6288,4.6519,17739,0
20140212,4.6519,4.6674,4.6212,4.6289,21715,0
20140213,4.5903,4.6212,4.5673,4.5748,40423,0
20140214,4.5595,4.5903,4.5595,4.5748,18379,0
20140218,4.5828,4.6519,4.5517,4.5673,65012,0
20140219,4.5595,4.5788,4.5517,4.5517,3529,0
20140220,4.5442,4.5595,4.5056,4.5442,13697,0
20140221,4.5595,4.5828,4.5286,4.5748,26170,0
20140224,4.5748,4.6288,4.5442,4.6288,25974,0
20140225,4.5828,4.8907,4.5828,4.7983,60166,0
20140226,4.7674,4.8522,4.6904,4.7906,20577,0
20140227,4.7983,4.7983,4.6827,4.7828,10455,0
20140228,4.7983,4.9676,4.7521,4.9676,26209,0
20140303,4.9601,5.0139,4.752,4.9676,16154,0
20140304,4.9365,5.0693,4.8503,4.8895,23210,0
20140305,4.8895,4.9285,4.8426,4.8582,8009,0
20140306,4.8347,4.866,4.7409,4.7409,29063,0
20140307,4.7799,4.8269,4.7799,4.8269,10017,0
20140310,4.7172,4.8049,4.6861,4.7955,44843,0
20140311,4.733,4.8034,4.733,4.7565,6208,0
20140312,4.7565,4.7955,4.733,4.733,31048,0
20140313,4.7172,4.7409,4.7018,4.7096,9756,0
20140314,4.7018,4.7409,4.6627,4.7172,14034,0
20140317,4.7018,4.7565,4.6704,4.6704,26263,0
20140318,4.7096,4.7799,4.693,4.7252,34339,0
20140319,4.7486,4.7955,4.733,4.733,31691,0
20140320,4.7644,4.7955,4.7486,4.7565,5959,0
20140321,4.7565,4.8503,4.6939,4.8503,87779,0
20140324,4.7721,4.8739,4.7644,4.8347,41703,0
20140325,4.8347,4.8739,4.7565,4.7879,12929,0
20140326,4.8191,4.8269,4.7409,4.7879,24797,0
20140327,4.7644,4.7721,4.733,4.7486,11640,0
20140328,4.733,4.7955,4.7182,4.7644,6204,0
20140331,4.7721,4.8034,4.7486,4.7799,10711,0
20140401,4.7807,4.8128,4.7252,4.7252,17937,0
20140402,4.7721,4.7721,4.6939,4.6939,23253,0
20140403,4.7565,4.7565,4.6939,4.733,16604,0
20140404,4.7644,4.7799,4.6861,4.7018,38897,0
20140407,4.7252,4.7252,4.6861,4.6861,5330,0
20140408,4.7172,4.7252,4.647,4.7096,15973,0
20140409,4.7252,4.7252,4.6939,4.7252,6949,0
20140410,4.7018,4.7172,4.6079,4.7172,38240,0
20140411,4.6861,4.6978,4.6078,4.6236,9369,0
20140414,4.6861,4.6939,4.6156,4.647,5686,0
20140415,4.6236,4.7486,4.5766,4.7252,52511,0
20140416,4.6079,4.733,4.6079,4.7023,13557,0
20140417,4.733,4.7955,4.7019,4.7955,34712,0
20140421,4.7799,4.8503,4.7565,4.7879,81806,0
20140422,4.8112,4.8739,4.8112,4.8426,62007,0
20140423,4.8739,4.9443,4.8583,4.9285,58670,0
20140424,4.9285,4.9285,4.8739,4.8895,17951,0
20140425,4.8895,4.9519,4.8739,4.9051,29854,0
20140428,4.9519,4.9519,4.733,4.7879,43861,0
20140429,4.8426,4.9277,4.7799,4.8347,27192,0
20140430,4.8974,4.9519,4.8582,4.9519,14738,0
20140501,4.9052,5.0929,4.9052,5.0615,53383,0
20140502,5.0381,5.2258,5.0069,5.1275,85874,0
20140505,5.1475,5.1629,5.0069,5.1124,44067,0
20140506,5.1165,5.1554,4.9417,5.0132,46946,0
20140507,5.0528,5.0926,4.9972,5.0528,16184,0
20140508,5.0051,5.0052,4.8216,4.9178,28833,0
20140509,4.9813,4.9972,4.8701,4.9893,19905,0
20140512,4.9337,5.0766,4.9257,5.0766,13382,0
20140513,5.1004,5.1085,4.9734,4.9734,26328,0
20140514,4.9655,4.9655,4.8701,4.886,18882,0
20140515,4.886,4.9734,4.8852,4.9178,8323,0
20140516,4.8622,4.9893,4.8543,4.9655,30014,0
20140519,4.9893,5.0051,4.9576,4.9813,15215,0
20140520,4.9018,5.0584,4.9018,5.0289,17002,0
20140521,5.0051,5.0528,4.9337,5.0528,10197,0
20140522,5.045,5.045,4.9182,4.9337,3778,0
20140523,5.0369,5.0369,4.9494,4.9494,10136,0
20140527,4.9734,5.0025,4.886,4.955,11335,0
20140528,4.9046,5.0051,4.9046,5.0051,2551,0
20140529,4.9655,4.9813,4.894,4.9417,7771,0
20140530,4.9813,4.9813,4.9576,4.9813,4664,0
20140602,4.9337,4.9576,4.9018,4.9576,14466,0
20140603,4.9018,4.9018,4.8543,4.8622,27248,0
20140604,4.8858,4.9018,4.8622,4.8775,6929,0
20140605,4.9576,4.9576,4.886,4.886,6410,0
20140606,4.9576,5.0051,4.9249,4.973,15904,0
20140609,4.9257,4.9807,4.8622,4.9099,12587,0
20140610,4.886,4.9494,4.8622,4.9099,5539,0
20140611,4.9018,4.9018,4.8543,4.8838,4245,0
20140612,4.886,4.886,4.8066,4.8066,17211,0
20140613,4.7985,4.9018,4.7985,4.8543,13097,0
20140616,4.8304,4.8781,4.8145,4.8781,17294,0
20140617,4.8463,4.8837,4.8463,4.8622,7541,0
20140618,4.8543,4.8622,4.7668,4.8224,15894,0
20140619,4.8463,4.8701,4.8066,4.8304,36050,0
20140620,4.8781,4.9018,4.7827,4.8184,27511,0
20140623,4.8216,4.894,4.8216,4.8701,6410,0
20140624,4.8224,4.886,4.8224,4.8543,3356,0
20140625,4.8459,4.882,4.8459,4.8543,3842,0
20140626,4.8463,4.8757,4.7827,4.7907,36917,0
20140627,4.8224,4.8224,4.4649,4.4809,124579,0
20140630,4.6079,4.7191,4.6079,4.6953,28947,0
20140701,4.7431,4.8304,4.7192,4.8303,49982,0
20140702,4.8304,4.8384,4.7271,4.8145,15609,0
20140703,4.9655,4.9655,4.7747,4.7747,3401,0
20140707,4.7589,4.8142,4.7589,4.7912,8442,0
20140708,4.8384,4.8384,4.7351,4.77,10661,0
20140709,4.7351,4.8654,4.7272,4.7351,13550,0
20140710,4.7271,4.7271,4.5761,4.6207,48920,0
20140711,4.6079,4.6556,4.4887,4.5284,28500,0
20140714,4.5365,4.6158,4.5365,4.5761,20938,0
20140715,4.5683,4.5841,4.5284,4.5284,28249,0
20140716,4.5523,4.6794,4.5365,4.6794,31587,0
20140717,4.7033,4.7271,4.5602,4.5602,40234,0
20140718,4.5683,4.6158,4.4968,4.5602,21176,0
20140721,4.5365,4.5365,4.4592,4.5365,5760,0
20140722,4.473,4.6072,4.4636,4.5761,32242,0
20140723,4.5683,4.722,4.5047,4.6953,56314,0
20140724,4.7192,4.7192,4.6159,4.6239,2828,0
20140725,4.6477,4.6477,4.624,4.6347,3528,0
20140728,4.5921,4.6557,4.4569,4.5602,55057,0
20140729,4.5921,4.6079,4.5365,4.5921,21302,0
20140730,4.6159,4.6239,4.5683,4.6079,14904,0
20140731,4.6079,4.608,4.5365,4.5444,6961,0
20140801,4.5452,4.5966,4.4968,4.4968,70782,0
20140804,4.5444,4.5444,4.5054,4.5284,16083,0
20140805,4.5444,4.5769,4.4968,4.5047,24852,0
20140806,4.4968,4.5812,4.4968,4.5761,16587,0
20140807,4.5843,4.6409,4.5681,4.5761,20466,0
20140808,4.5906,4.6004,4.56,4.56,18646,0
20140811,4.5608,4.6004,4.5358,4.597,4803,0
20140812,4.5401,4.6166,4.5401,4.6142,6173,0
20140813,4.5952,4.6153,4.5851,4.6029,27040,0
20140814,4.6166,4.6489,4.6166,4.6328,15707,0
20140815,4.6246,4.636,4.5761,4.6117,9789,0
20140818,4.6086,4.6246,4.6086,4.6086,6695,0
20140819,4.6086,4.6246,4.5761,4.6004,22139,0
20140820,4.6004,4.6004,4.5358,4.5518,28535,0
20140821,4.5958,4.5958,4.5681,4.5682,12456,0
20140822,4.5275,4.5474,4.5275,4.5275,36814,0
20140825,4.5275,4.6086,4.5275,4.5681,29143,0
20140826,4.5439,4.5518,4.463,4.463,10628,0
20140827,4.4798,4.5033,4.471,4.4901,7292,0
20140828,4.471,4.4953,4.4549,4.463,18456,0
20140829,4.482,4.482,4.4792,4.4792,1966,0
20140902,4.5033,4.5033,4.4847,4.4847,5249,0
20140903,4.4953,4.5275,4.4873,4.5116,56892,0
20140904,4.5116,4.6086,4.5116,4.6004,36447,0
20140905,4.5196,4.6166,4.5033,4.5439,51373,0
20140908,4.5391,4.5391,4.471,4.4953,9083,0
20140909,4.5196,4.5196,4.4565,4.463,17137,0
20140910,4.4943,4.4943,4.4063,4.4063,5717,0
20140911,4.4549,4.4549,4.2528,4.3498,29546,0
20140912,4.3014,4.3498,4.3014,4.3498,3722,0
20140915,4.382,4.3983,4.285,4.3336,13446,0
20140916,4.2689,4.3417,3.8796,3.986,47091,0
20140917,3.994,4.0668,3.9212,4.0506,35097,0
20140918,4.0991,4.1073,3.9375,4.0102,32925,0
20140919,4.366,4.366,3.9133,3.9212,36409,0
20140922,3.905,3.9698,3.8344,3.8405,16294,0
20140923,3.889,3.889,3.6788,3.6788,21041,0
20140924,3.6788,3.6866,3.5575,3.6059,17844,0
20140925,3.5575,4.2446,3.5575,4.2256,76654,0
20140926,4.2931,4.3416,4.1073,4.3336,48041,0
20140929,4.1558,4.2366,4.1152,4.1234,7372,0
20140930,4.1073,4.2771,4.0021,4.2446,41172,0
20141001,4.083,4.1395,4.0263,4.0588,45511,0
20141002,4.0588,4.1193,4.0425,4.0588,25935,0
20141003,4.0588,4.0952,3.8808,3.889,14641,0
20141006,4.0425,4.0506,4.0021,4.0263,13523,0
20141007,3.9134,4.0345,3.9134,3.9617,22902,0
20141008,3.9536,4.0102,3.8808,3.9293,39973,0
20141009,3.9375,4.0078,3.9375,3.986,9012,0
20141010,3.986,3.986,3.889,3.9455,12913,0
20141013,3.9293,3.9617,3.8808,3.9212,36536,0
20141014,3.9375,3.9536,3.8648,3.9334,48169,0
20141015,3.9212,3.9536,3.7757,3.847,22864,0
20141016,3.8162,3.8405,3.7595,3.7595,9278,0
20141017,3.7595,3.856,3.7595,3.8323,7240,0
20141020,3.8,3.9536,3.7677,3.7677,26350,0
20141021,3.8405,3.8405,3.7677,3.8242,7533,0
20141022,3.8405,3.9293,3.7838,3.8671,19070,0
20141023,3.8565,3.9617,3.8,3.8615,22996,0
20141024,3.8565,3.9455,3.8405,3.9133,25845,0
20141027,3.8214,3.9211,3.8162,3.897,14500,0
20141028,3.889,3.9132,3.8,3.8776,10513,0
20141029,3.9211,3.9211,3.8405,3.8569,19178,0
20141030,3.905,3.905,3.8242,3.8687,45502,0
20141031,3.897,3.9536,3.897,3.905,28102,0
20141103,3.9375,4.1395,3.9293,4.0588,37165,0
20141104,3.994,4.1073,3.9294,4.0021,48885,0
20141105,4.2043,4.2123,4.0021,4.0668,24377,0
20141106,4.0668,4.1234,3.994,4.0425,36084,0
20141107,4.0748,4.0911,4.0345,4.0668,19974,0
20141110,4.0991,4.1161,4.057,4.0694,18921,0
20141111,4.0831,4.0831,4.0714,4.083,21949,0
20141112,3.9698,4.1719,3.9617,4.1315,26232,0
20141113,4.1558,4.1558,4.1234,4.1477,1341,0
20141114,4.1234,4.3014,4.0102,4.0183,41192,0
20141117,4.2204,4.2204,3.994,4.1152,29729,0
20141118,4.0748,4.2528,4.0748,4.1641,35796,0
20141119,4.1234,4.1573,4.0911,4.1234,9187,0
20141120,4.1477,4.2043,4.0425,4.0951,36588,0
20141121,4.0506,4.3014,4.0506,4.3014,21409,0
20141124,4.2689,4.2931,4.0748,4.0748,54542,0
20141125,4.1234,4.1637,4.0595,4.1315,29889,0
20141126,4.0748,4.2366,4.0506,4.0911,16593,0
20141128,4.2285,4.2285,4.0588,4.0588,14996,0
20141201,4.1801,4.2285,4.0425,4.0425,40859,0
20141202,4.0911,4.2366,4.0425,4.0991,15231,0
20141203,4.1395,4.3579,4.1395,4.1637,23137,0
20141205,4.0991,4.2657,4.0991,4.1477,20231,0
20141208,4.0991,4.2771,4.0991,4.2608,10724,0
20141209,4.1637,4.1637,4.0506,4.0668,35595,0
20141210,4.0748,4.1395,3.9698,3.994,22175,0
20141211,4.0102,4.1234,3.9837,3.9837,35288,0
20141212,4.0506,4.0748,3.9617,4.0263,27243,0
20141215,4.0588,4.0668,4.0263,4.0375,65178,0
20141216,4.0425,4.0991,4.0183,4.0748,53652,0
20141217,4.0263,4.1234,3.9738,4.1073,74306,0
20141218,4.1152,4.1637,4.1073,4.1558,77472,0
20141219,4.1315,4.1558,4.1234,4.1558,7181,0
20141222,4.1234,4.2043,4.1234,4.2043,18440,0
20141223,4.1234,4.1801,4.0911,4.1637,93456,0
20141224,4.1477,4.1637,4.1315,4.1395,9642,0
20141226,4.1558,4.1961,4.1073,4.1661,26572,0
20141229,4.3345,4.3782,4.0016,4.3258,15857,0
20141230,4.2205,4.2818,3.9579,4.0892,81779,0
20141231,4.0454,4.2818,4.0104,4.2818,52014,0
20150102,4.1855,4.2468,4.1154,4.1243,20663,0
20150105,4.1593,4.2993,4.1593,4.1593,12683,0
20150106,4.1593,4.1593,4.1593,4.1593,343,0
20150107,4.2381,4.2381,4.1506,4.1593,21829,0
20150108,4.1593,4.444,4.1593,4.422,73222,0
20150109,4.1855,4.2643,4.1855,4.2118,11050,0
20150112,4.2118,4.2468,4.203,4.2293,3880,0
20150113,4.4307,4.437,4.3345,4.3345,22942,0
20150114,4.3695,4.5095,4.2818,4.5006,41536,0
20150115,4.3695,4.5095,4.3345,4.4569,23960,0
20150116,4.3957,4.5006,4.3869,4.5006,15248,0
20150120,4.3869,4.5006,4.3782,4.4569,26209,0
20150121,4.3879,4.4832,4.3879,4.4832,14435,0
20150122,4.3081,4.4832,4.3081,4.4744,15792,0
20150123,4.3432,4.4832,4.2905,4.4395,16937,0
20150126,4.3869,4.4744,4.3081,4.3345,4623,0
20150127,4.2468,4.3782,4.1681,4.203,10139,0
20150128,4.3257,4.352,4.2556,4.3168,18804,0
20150129,4.2993,4.3432,4.2993,4.3432,3728,0
20150130,4.352,4.3695,4.2817,4.2817,5207,0
20150202,4.2381,4.3782,4.1681,4.2556,10560,0
20150203,4.2293,4.3607,4.1768,4.3258,11265,0
20150204,4.1943,4.5095,4.1943,4.5095,29275,0
20150205,4.2905,4.4306,4.2905,4.3869,3706,0
20150209,4.2556,4.4831,4.2556,4.3869,5153,0
20150210,4.3091,4.3781,4.2469,4.3695,54905,0
20150211,4.2643,4.3607,4.1242,4.3345,23526,0
20150212,4.2468,4.3695,4.2205,4.273,4542,0
20150213,4.3258,4.3345,4.3168,4.3345,6811,0
20150217,4.2293,4.2905,4.1768,4.2905,26185,0
20150218,4.2905,4.3432,4.2556,4.3258,15011,0
20150219,4.2293,4.3081,4.2118,4.2905,13574,0
20150220,4.2643,4.2905,4.2556,4.2818,5428,0
20150223,4.3258,4.3782,4.3258,4.3782,12320,0
20150224,4.3782,4.3782,4.1943,4.3695,38538,0
20150225,4.3166,4.3397,4.3081,4.3397,2923,0
20150226,4.273,4.2818,4.203,4.2205,12465,0
20150227,4.203,4.273,4.203,4.2205,5429,0
20150302,4.273,4.2818,4.2468,4.2818,27522,0
20150303,4.2118,4.2818,4.203,4.273,26838,0
20150304,4.2993,4.2993,4.2381,4.2556,13705,0
20150305,4.2818,4.2993,4.2556,4.273,38030,0
20150306,4.2205,4.2905,4.203,4.2905,15417,0
20150309,4.2818,4.2905,4.2468,4.2468,9935,0
20150310,4.2818,4.3081,4.2468,4.273,8109,0
20150311,4.2818,4.2818,4.2468,4.2818,3199,0
20150312,4.273,4.2905,4.203,4.2643,54019,0
20150313,4.2381,4.2643,4.2381,4.2643,16445,0
20150316,4.2118,4.2556,4.2118,4.2293,10507,0
20150317,4.2468,4.2905,4.2468,4.2905,9365,0
20150318,4.2205,4.2643,4.2205,4.2468,15075,0
20150319,4.2468,4.352,4.2468,4.2818,1598,0
20150320,4.2643,4.2643,4.2556,4.2643,14162,0
20150323,4.2905,4.4132,4.2468,4.4132,39400,0
20150324,4.422,4.5006,4.422,4.4919,33347,0
20150325,4.4657,4.4744,4.422,4.4569,26952,0
20150326,4.3869,4.5006,4.3869,4.4395,5368,0
20150327,4.4482,4.5006,4.422,4.5006,20442,0
20150330,4.5358,4.5358,4.3869,4.4832,35175,0
20150331,4.3869,4.422,4.3869,4.3957,6998,0
20150401,4.3695,4.4132,4.3345,4.3869,53790,0
20150402,4.3258,4.4569,4.2993,4.3782,19757,0
20150406,4.3782,4.4657,4.3081,4.3695,30264,0
20150407,4.352,4.3782,4.3258,4.3607,84812,0
20150408,4.3345,4.4657,4.3345,4.4482,9707,0
20150409,4.4744,4.4831,4.3782,4.3782,8718,0
20150410,4.4132,4.4482,4.3957,4.4307,4111,0
20150413,4.6022,4.6112,4.4939,4.5931,4986,0
20150414,4.6202,4.6202,4.4939,4.557,5762,0
20150415,4.6022,4.6022,4.557,4.5931,16546,0
20150416,4.4939,4.6202,4.4579,4.521,11246,0
20150417,4.4849,4.5481,4.4759,4.512,9863,0
20150420,4.5337,4.5337,4.485,4.5211,6375,0
20150421,4.539,4.5481,4.5209,4.53,33295,0
20150422,4.5211,4.5612,4.512,4.557,11709,0
20150423,4.557,4.5661,4.512,4.5481,15072,0
20150424,4.6022,4.7105,4.5481,4.5931,41336,0
20150427,4.6022,4.7466,4.5481,4.6473,31472,0
20150428,4.6924,4.7466,4.5481,4.5931,15958,0
20150429,4.6473,4.7105,4.5841,4.6022,40337,0
20150430,4.5841,4.7826,4.5841,4.7647,38896,0
20150501,4.6112,4.7286,4.6112,4.7195,2438,0
20150504,4.6292,4.7286,4.6292,4.7286,3213,0
20150505,4.7286,4.7826,4.6654,4.7195,6095,0
20150506,4.7285,4.7285,4.6022,4.6834,5799,0
20150507,4.6473,4.6473,4.6022,4.6113,3110,0
20150508,4.5481,4.6834,4.5481,4.6292,13963,0
20150511,4.5931,4.6563,4.5931,4.6563,25378,0
20150512,4.594,4.6473,4.594,4.6022,15155,0
20150513,4.7286,4.7286,4.6022,4.6654,1108,0
20150514,4.4759,4.7286,4.4759,4.6563,32469,0
20150515,4.6744,4.6744,4.6383,4.6473,9709,0
20150518,4.6383,4.6662,4.5842,4.6079,9255,0
20150519,4.5751,4.6654,4.53,4.5841,16955,0
20150520,4.6112,4.6292,4.53,4.6022,6428,0
20150521,4.557,4.5841,4.557,4.5751,17399,0
20150522,4.5751,4.6473,4.5391,4.557,18950,0
20150526,4.5391,4.6292,4.521,4.6022,6521,0
20150527,4.5661,4.6202,4.557,4.5841,25488,0
20150528,4.5301,4.5435,4.53,4.5392,6130,0
20150529,4.5661,4.6112,4.557,4.6022,19283,0
20150601,4.6022,4.6112,4.53,4.6112,8558,0
20150602,4.6112,4.6112,4.521,4.557,9651,0
20150603,4.6112,4.6112,4.4668,4.5931,12079,0
20150604,4.6022,4.6022,4.4759,4.4939,9087,0
20150605,4.503,4.5931,4.4939,4.5391,18950,0
20150608,4.5391,4.5751,4.4398,4.4488,9863,0
20150609,4.4953,4.6442,4.4953,4.6071,19918,0
20150610,4.6293,4.658,4.6163,4.6535,5835,0
20150611,4.6535,4.6629,4.607,4.6535,16900,0
20150612,4.6629,4.6629,4.5976,4.6349,40830,0
20150615,4.6535,4.6535,4.4581,4.5512,8811,0
20150616,4.5418,4.5418,4.486,4.486,8274,0
20150617,4.4302,4.6256,4.4302,4.5046,14398,0
20150618,4.4208,4.5139,4.3836,4.486,39432,0
20150619,4.486,4.5046,4.3836,4.4022,47706,0
20150622,4.0671,4.3836,3.4901,4.3278,76394,0
20150623,4.2254,4.459,4.2254,4.4022,19772,0
20150624,4.3929,4.4115,4.3278,4.4115,23531,0
20150625,4.5046,4.5046,4.4022,4.4115,7951,0
20150626,4.4208,4.5139,4.3836,4.4673,61889,0
20150629,4.3557,4.4673,4.1881,4.1881,22133,0
20150630,4.1974,4.3464,4.1788,4.1881,10626,0
20150701,4.2627,4.3557,4.2627,4.3278,5050,0
20150702,4.3649,4.4766,4.3649,4.3743,6876,0
20150706,4.2998,4.4115,4.2998,4.3464,10314,0
20150707,4.3278,4.4022,4.3278,4.3836,3545,0
20150708,4.1695,4.4395,4.1695,4.3278,6446,0
20150709,4.4673,4.4673,4.2533,4.4302,34061,0
20150710,4.244,4.3557,4.244,4.3557,5694,0
20150713,4.2533,4.5139,4.1974,4.3743,24282,0
20150714,4.3557,4.5605,4.3557,4.4581,26943,0
20150715,4.4673,4.6907,4.4673,4.6535,66169,0
20150716,4.6163,4.6814,4.5418,4.6814,18804,0
20150717,4.5883,4.6535,4.5883,4.6163,13754,0
20150720,4.5883,4.6163,4.5883,4.5976,3545,0
20150721,4.5605,4.7,4.3836,4.607,58020,0
20150722,4.5883,4.6535,4.5883,4.6442,36531,0
20150723,4.6442,4.6629,4.5232,4.5697,6769,0
20150724,4.6349,4.6535,4.579,4.6442,5910,0
20150727,4.5976,4.6629,4.5697,4.6535,20630,0
20150728,4.5697,4.607,4.5139,4.5883,41581,0
20150729,4.5605,4.7466,4.5605,4.7187,20844,0
20150730,4.4673,4.7559,4.4673,4.6721,39432,0
20150731,4.6535,4.6535,4.6535,4.6535,21274,0
20150803,4.6907,4.7651,4.6256,4.6465,13537,0
20150804,4.6256,4.7745,4.6256,4.7093,10207,0
20150805,4.6907,4.7187,4.6535,4.6907,12679,0
20150806,4.6629,4.6814,4.5697,4.6442,15131,0
20150807,4.5232,4.6629,4.5139,4.6535,7092,0
20150810,4.6721,4.6721,4.5139,4.5232,8274,0
20150811,4.3955,4.579,4.3955,4.579,28320,0
20150812,4.5325,4.6907,4.5139,4.6442,16654,0
20150813,4.5418,4.6907,4.5139,4.6907,25787,0
20150814,4.6442,4.6442,4.6442,4.6442,752,0
20150817,4.6256,4.8304,4.6256,4.6629,27829,0
20150818,4.579,4.6907,4.579,4.6535,23745,0
20150819,4.6535,4.6535,4.607,4.6535,7092,0
20150820,4.6163,4.7373,4.6163,4.7187,18051,0
20150821,4.6629,4.7187,4.4766,4.5046,16010,0
20150824,4.4208,4.6024,4.3929,4.4116,26123,0
20150825,4.4208,4.579,4.4115,4.4115,16332,0
20150826,4.0113,4.4673,4.0113,4.4673,25787,0
20150827,4.2812,4.6442,4.2812,4.5139,45020,0
20150828,4.5232,4.6256,4.4673,4.5232,23853,0
20150831,4.3929,4.6256,4.3929,4.607,28151,0
20150901,4.607,4.607,4.5232,4.607,11282,0
20150902,4.5605,4.6349,4.5232,4.5418,13001,0
20150903,4.5418,4.6163,4.4673,4.4953,20844,0
20150904,4.4953,4.5605,4.486,4.486,15364,0
20150908,4.486,4.579,4.4673,4.5139,7951,0
20150909,4.5907,4.6676,4.4659,4.5235,25822,0
20150910,4.4899,4.6484,4.4899,4.5907,9538,0
20150911,4.6195,4.6195,4.4755,4.5043,6872,0
20150914,4.4851,4.4947,4.4851,4.4851,729,0
20150915,4.4563,4.5715,4.4563,4.5427,17389,0
20150916,4.5043,4.5331,4.4947,4.5331,24989,0
20150917,4.4668,4.5508,4.4371,4.5374,10138,0
20150918,4.4947,4.5715,4.4563,4.5331,7080,0
20150921,4.4755,4.5619,4.4659,4.4755,3644,0
20150922,4.5523,4.658,4.4947,4.4947,29675,0
20150923,4.5619,4.5619,4.5043,4.5331,18846,0
20150924,4.5235,4.5523,4.5043,4.5523,15920,0
20150925,4.5523,4.5619,4.4755,4.5235,75281,0
20150928,4.4692,4.6195,4.4659,4.5187,18089,0
20150929,4.5427,4.6099,4.4467,4.5619,19679,0
20150930,4.5427,4.5427,4.5043,4.5043,2291,0
20151001,4.5043,4.5043,4.3698,4.4659,8642,0
20151002,4.4179,4.4755,4.3314,4.4659,6872,0
20151005,4.4659,4.5523,4.4563,4.5427,11511,0
20151006,4.4659,4.5523,4.4659,4.5235,12495,0
20151007,4.5235,4.5427,4.4947,4.5235,14473,0
20151008,4.4659,4.5331,4.4659,4.5043,9371,0
20151009,4.4755,4.5235,4.4563,4.4947,11141,0
20151012,4.4659,4.5523,4.4659,4.5523,3423,0
20151013,4.4659,4.5331,4.4659,4.5139,21866,0
20151014,4.4947,4.5043,4.4851,4.5043,6664,0
20151015,4.4947,4.5043,4.3314,4.5043,27176,0
20151016,4.4179,4.4371,4.3602,4.4083,20825,0
20151019,4.3794,4.3794,4.3122,4.3794,25718,0
20151020,4.3218,4.4288,4.3026,4.3602,7881,0
20151021,4.3794,4.4467,4.3218,4.3218,10621,0
20151022,4.4275,4.4275,4.293,4.3122,4998,0
20151023,4.3506,4.3602,4.1778,4.2258,14161,0
20151026,4.3122,4.3122,4.1778,4.1874,12286,0
20151027,4.2066,4.3026,4.1489,4.1682,25510,0
20151028,4.1874,4.293,4.0817,4.1586,33840,0
20151029,4.1105,4.1489,4.1105,4.1489,5414,0
20151030,4.1201,4.1682,4.1201,4.1393,2187,0
20151102,4.1297,4.1586,4.0913,4.0913,10582,0
20151103,4.0337,4.1297,4.0337,4.0913,23115,0
20151104,4.1249,4.1674,4.0913,4.1105,4909,0
20151105,4.0529,4.1105,4.0433,4.0817,10204,0
20151106,4.0337,4.0817,4.0241,4.0241,15202,0
20151109,4.0145,4.0521,4.0145,4.0521,696,0
20151110,3.9953,4.0721,3.9953,4.0529,8955,0
20151111,4.0049,4.0433,3.9953,4.0337,27593,0
20151112,3.9761,4.0529,3.8512,3.8512,61641,0
20151113,3.7648,3.9761,3.7648,3.8224,7601,0
20151116,3.7744,3.8704,3.7456,3.8608,14265,0
20151117,3.736,3.8032,3.7072,3.7264,6872,0
20151118,3.7168,3.7648,3.7072,3.7072,11974,0
20151119,3.6783,3.7168,3.6495,3.6495,22282,0
20151120,3.6303,3.6687,3.6207,3.6207,26447,0
20151123,3.6015,3.6687,3.5631,3.5631,12599,0
20151124,3.5439,3.6495,3.5343,3.5439,10829,0
20151125,3.5439,3.6207,3.5247,3.5439,14057,0
20151127,3.5055,3.5823,3.5055,3.5823,2707,0
20151130,3.6591,3.6591,3.6207,3.6399,10204,0
20151201,3.7744,3.7744,3.6111,3.6383,36092,0
20151202,3.6101,3.657,3.61,3.62,18407,0
20151203,3.56,3.8,3.53,3.799,20572,0
20151204,3.66,3.77,3.55,3.77,33700,0
20151207,3.56,3.61,3.51,3.51,24300,0
20151208,3.5001,3.5594,3.49,3.5183,9926,0
20151209,3.5,3.56,3.41,3.5,31700,0
20151210,3.59,3.59,3.47,3.5,4900,0
20151211,3.57,3.57,3.31,3.34,33200,0
20151214,3.3,3.372,3.02,3.1,14845,0
20151215,3.1,3.31,3.03,3.1,27300,0
20151216,3.03,3.3,3.03,3.28,14700,0
20151217,3.18,3.44,3.06,3.11,20800,0
20151218,3.25,3.25,3.06,3.14,33900,0
20151221,3.08,3.41,3.08,3.29,84500,0
20151222,3.18,3.24,3.12,3.24,19041,0
20151223,3.25,3.36,3.23,3.35,13000,0
20151224,3.27,3.34,3.2611,3.34,957,0
20151228,3.28,3.28,3.164,3.17,7148,0
20151229,3.15,3.19,3.15,3.17,11119,0
20151230,3.24,3.24,3.154,3.197,25143,0
20151231,3.17,3.2,3.17,3.2,17059,0
20160104,3.1989,3.2,3.17,3.17,11064,0
20160105,3.1688,3.1799,3.12,3.13,3600,0
20160106,3.11,3.11,3.0601,3.07,38751,0
20160107,3.076,3.076,2.78,2.78,83825,0
20160108,2.84,2.9499,2.71,2.71,29017,0
20160111,2.746,2.746,2.53,2.53,15925,0
20160112,2.52,2.55,2.21,2.41,40838,0
20160113,2.45,2.45,2.26,2.27,15976,0
20160114,2.27,2.28,2.253,2.253,5094,0
20160115,2.25,2.26,2.1,2.13,70552,0
20160119,2.17,2.3,2.13,2.16,28200,0
20160120,2.13,2.13,1.96,1.96,59595,0
20160121,2.02,2.0928,2.01,2.01,20066,0
20160122,2.04,2.0826,1.97,2,73907,0
20160125,2,2.117,1.97,2.02,285504,0
20160126,2.05,2.15,2.0243,2.1,44574,0
20160127,2.05,2.25,2.05,2.0801,86193,0
20160128,2.1722,2.1722,2.1198,2.14,16899,0
20160129,2.18,2.29,2.18,2.2852,89842,0
20160201,2.38,2.41,2.27,2.3899,63134,0
20160202,2.4,2.54,2.35,2.42,135459,0
20160203,2.4754,2.56,2.4,2.54,53793,0
20160204,2.51,2.55,2.45,2.54,72264,0
20160205,2.5812,2.61,2.55,2.56,10555,0
20160208,2.58,2.6055,2.54,2.59,18803,0
20160209,2.63,2.67,2.46,2.46,38911,0
20160210,2.44,2.58,2.44,2.58,13795,0
20160211,2.4,2.57,2.4,2.49,16637,0
20160212,2.5,2.61,2.46,2.61,19484,0
20160216,2.64,2.6999,2.51,2.53,23438,0
20160217,2.54,2.8,2.52,2.56,182348,0
20160218,2.52,2.692,2.52,2.692,9081,0
20160219,2.71,2.71,2.55,2.55,7792,0
20160222,2.537,2.54,2.537,2.54,1100,0
20160223,2.5699,2.68,2.55,2.56,12422,0
20160224,2.53,2.59,2.53,2.55,11771,0
20160225,2.5101,2.66,2.51,2.6499,7792,0
20160226,2.6,2.6,2.58,2.59,1200,0
20160229,2.6499,2.6499,2.53,2.54,9938,0
20160301,2.6,2.65,2.5601,2.58,16358,0
20160302,2.649,2.67,2.5747,2.65,11339,0
20160303,2.6899,2.6899,2.54,2.67,42636,0
20160304,2.65,2.68,2.63,2.68,4214,0
20160307,2.6219,2.65,2.6101,2.65,9803,0
20160308,2.62,2.67,2.6101,2.63,11471,0
20160309,2.6,2.67,2.6,2.66,7045,0
20160310,2.6601,2.74,2.61,2.61,21952,0
20160311,2.66,2.66,2.6599,2.66,3000,0
20160314,2.6701,2.72,2.6701,2.72,1572,0
20160315,2.67,2.723,2.67,2.71,1170,0
20160316,2.7115,2.7346,2.64,2.64,11366,0
20160317,2.6401,2.69,2.6401,2.65,6854,0
20160318,2.6716,2.6716,2.53,2.5301,17228,0
20160322,2.53,2.5501,2.5,2.5,10304,0
20160323,2.54,2.56,2.52,2.5589,6838,0
20160324,2.56,2.5776,2.56,2.56,1124,0
20160328,2.59,2.59,2.55,2.56,4893,0
20160329,2.53,2.5721,2.53,2.53,7201,0
20160330,2.58,2.58,2.5,2.52,9341,0
20160331,2.6,2.6417,2.6,2.62,18815,0
20160401,2.62,2.65,2.59,2.59,41785,0
20160404,2.6131,2.6399,2.59,2.59,4839,0
20160405,2.59,2.6399,2.59,2.63,12705,0
20160406,2.61,2.678,2.61,2.65,18032,0
20160407,2.6999,2.72,2.67,2.72,28717,0
20160408,2.6744,2.7188,2.53,2.61,37663,0
20160411,2.56,2.6799,2.53,2.6799,11643,0
20160412,2.73,2.73,2.61,2.69,24547,0
20160413,2.6555,2.6895,2.63,2.65,11908,0
20160414,2.65,2.6651,2.6101,2.6101,3038,0
20160415,2.59,2.62,2.59,2.6001,3960,0
